t theta
6.122448979591837e-7 -0.09999999999575093
0.009201537616788803 -0.09922531350808841
0.018402462988679646 -0.09692473774141275
0.02760338836057049 -0.0931746211553107
0.03680431373246133 -0.08812319548009726
0.046005239104352176 -0.08201388733869133
0.05520616447624302 -0.0751973293549889
0.06440708984813387 -0.06811142582431355
0.0736080152200247 -0.06122290537159138
0.08280894059191554 -0.05495407254674862
0.09200986596380639 -0.04963234908441004
0.10121079133569724 -0.045479310245209514
0.11041171670758809 -0.04262741001926917
0.11961264207947894 -0.04114388088928012
0.1288135674513698 -0.04104812170348887
0.13801449282326061 -0.04231706000683745
0.14721541819515147 -0.04487733993039002
0.15641634356704232 -0.04858593070465062
0.16561726893893314 -0.05320581627668158
0.174818194310824 -0.058392210096486756
0.18401911968271484 -0.06371019296878239
0.1932200450546057 -0.06869191129052206
0.20242097042649654 -0.07291096706758286
0.2116218957983874 -0.07603557395604
0.22082282117027824 -0.07784174538473848
0.23002374654216906 -0.07819747247589243
0.2392246719140599 -0.07703896045757405
0.24842559728595076 -0.07435342813248211
0.2576265226578416 -0.07017442786773287
0.26682744802973246 -0.0645907684426229
0.2760283734016233 -0.05776667349902519
0.2852292987735141 -0.04996479759721182
0.294430224145405 -0.041554762717885475
0.30363114951729586 -0.03298712630908488
0.3128320748891867 -0.024730210950044455
0.3220330002610775 -0.017197705562171418
0.3312339256329684 -0.010703695219848042
0.3404348510048592 -0.00545709396824308
0.34963577637675003 -0.0015807095399045879
0.3588367017486409 0.0008653664341209525
0.36803762712053173 0.0018684897236524941
0.37723855249242255 0.0014610164086611946
0.38643947786431343 -0.00026867309290850666
0.39564040323620425 -0.0031543252432354217
0.4048413286080951 -0.00692822053679109
0.41404225397998595 -0.011214239358809913
0.4232431793518768 -0.015557755909498873
0.4324441047237676 -0.019492584221074204
0.4416450300956585 -0.022614001428354256
0.45084595546754935 -0.024621112207819817
0.4600468808394402 -0.02531925883676942
0.469247806211331 -0.024599260687561318
0.4784487315832219 -0.02241389752152068
0.48764965695511275 -0.018763396872006517
0.4968505823270036 -0.01369403537823288
0.5060515076988944 -0.007310056007466644
0.5152524330707853 0.00020436978504887382
0.524453358442676 0.0085631386532225
0.5336542838145669 0.01737504566671851
0.5428552091864578 0.026178054214311238
0.5520561345583486 0.034507707876923234
0.5612570599302394 0.04196699455479757
0.5704579853021303 0.048263520555550256
0.5796589106740211 0.05320838019769838
0.588859836045912 0.05669464246440342
0.5988346934915034 0.05877259249931578
0.6088095509370948 0.05908383049328212
0.6187844083826861 0.057699154804435195
0.6287592658282775 0.05478156549783023
0.6387341232738688 0.05062179024268643
0.6487089807194601 0.04566037240634155
0.6586838381650515 0.04046001404442654
0.6686586956106428 0.03561557678714023
0.6786335530562342 0.03164504856253043
0.6886084105018255 0.028924945106440676
0.6985832679474169 0.027688421764589768
0.7085581253930083 0.028057618454513832
0.7185329828385998 0.030076912042084184
0.7285078402841911 0.03372985344495357
0.7384826977297825 0.038934872315436186
0.7484575551753738 0.04552096800780421
0.7584324126209652 0.05319252710812712
0.7684072700665565 0.06150733921184981
0.7783821275121479 0.06990296393712477
0.7883569849577393 0.07778440688800684
0.7983318424033308 0.0846317603183248
0.8083066998489221 0.09006520050094972
0.8182815572945135 0.0938480190147521
0.8282564147401048 0.09585535217006177
0.8382312721856962 0.0960422427492155
0.8482061296312875 0.09442892263909866
0.8581809870768788 0.09110844431840891
0.8681558445224703 0.0862742943285154
0.8781307019680618 0.0802551377425864
0.8881055594136531 0.07352732986063977
0.8980804168592444 0.06667086524954903
0.9080552743048358 0.060269351222641564
0.9180301317504271 0.05480828255440774
0.9280049891960185 0.05062758466862911
0.9379798466416098 0.04793185619653624
0.9479547040872013 0.04682521595348924
0.9579295615327927 0.04734127401958713
0.9679044189783841 0.049455027959810084
0.9778792764239754 0.053073525935916646
0.9878541338695668 0.05800762586670401
0.9978289913151582 0.0639363300770965
1.0078038487607497 0.07039126387338632
1.017778706206341 0.07679596996205257
1.0277535636519324 0.08256340418346181
1.0377284210975237 0.08720027986732456
1.047703278543115 0.09035947528228752
1.0576781359887064 0.09183288418883279
1.0676529934342978 0.09151735016713371
1.077627850879889 0.08938504634527118
1.0876027083254804 0.08547300981373834
1.0975775657710718 0.07989516531570875
1.1075524232166631 0.07287281452316176
1.1175272806622545 0.06476771776974298
1.1275021381078458 0.05608555544286052
1.1374769955534372 0.04741888983081564
1.1474518529990285 0.03934154807374289
1.1574267104446199 0.032314784471688646
1.1674015678902112 0.026652847360982595
1.1773764253358026 0.022540876988152457
1.187351282781394 0.020070192185099093
1.1973261402269852 0.019264623121657228
1.2073009976725766 0.020087229389912496
1.2172758551181682 0.022425492349938205
1.2272507125637595 0.02605910611457407
1.2365645531034595 0.030304035741799434
1.2458783936431597 0.034954321101719685
1.2551922341828596 0.039529124492029895
1.2645060747225596 0.0435524909904759
1.2738199152622598 0.04662672127006664
1.2831337558019598 0.04846743607131397
1.2924475963416597 0.04889808105509649
1.30176143688136 0.04782530266550872
1.3110752774210601 0.04521578344602141
1.32038911796076 0.04108487923608891
1.32970295850046 0.03550006590768382
1.3390167990401602 0.028598246241792337
1.3483306395798604 0.020610921810040584
1.3576444801195604 0.01188212761939434
1.3762721611989606 -0.005976186837520049
1.3855860017386608 -0.014158429334819238
1.3948998422783607 -0.02132715769719829
1.4042136828180607 -0.027232016796933243
1.4135275233577609 -0.03172100826742065
1.4228413638974609 -0.03471530173049592
1.4321552044371608 -0.03618996165679885
1.441469044976861 -0.036167708768540224
1.450782885516561 -0.0347272976331612
1.460096726056261 -0.032024508899368684
1.4694105665959611 -0.028317593960606912
1.4787244071356611 -0.02397903734138046
1.488038247675361 -0.019470943235823043
1.4973520882150613 -0.015278818686185644
1.5066659287547612 -0.011832789218512933
1.5159797692944612 -0.009457435439634962
1.5252936098341614 -0.00836493698283127
1.5346074503738616 -0.008675650449650466
1.5439212909135616 -0.01044358214032401
1.5532351314532615 -0.013673058229618144
1.5625489719929617 -0.01832162835464982
1.5718628125326617 -0.02428871729231926
1.5811766530723617 -0.0313930860976658
1.5904904936120619 -0.039348996657385095
1.5998043341517618 -0.04776059231055936
1.6091181746914618 -0.05615499870609466
1.618432015231162 -0.064052661578829
1.627745855770862 -0.07104139048538907
1.637059696310562 -0.07681702410954187
1.646373536850262 -0.0811834222901475
1.655687377389962 -0.08403037358814425
1.665001217929662 -0.08531032702259629
1.6743150584693622 -0.08502553677790646
1.6836288990090624 -0.08322949540289702
1.6929427395487624 -0.08004235793865827
1.7022565800884624 -0.07567535385784342
1.7115704206281626 -0.07045068074649757
1.7208842611678625 -0.06479478112512299
1.7301981017075625 -0.059189365366034176
1.7395119422472627 -0.05409420635946252
1.7488257827869627 -0.04988176034006323
1.7581396233266626 -0.04681233663573293
1.7674534638663628 -0.04504527850363168
1.7767673044060628 -0.04466420636898457
1.7860811449457628 -0.045698504545066014
1.795394985485463 -0.048132927598800765
1.804708826025163 -0.05190318098320666
1.8140226665648629 -0.05687841132443564
1.823336507104563 -0.06283602195767396
1.8324676470649024 -0.0693096834495339
1.8415987870252417 -0.07599929969418903
1.850729926985581 -0.08244976156109793
1.8598610669459206 -0.08822951785591739
1.8689922069062601 -0.0929888761445403
1.8781233468665994 -0.09648203157594173
1.8872544868269387 -0.09855725724981247
1.896385626787278 -0.09913460927671595
1.9055167667476174 -0.09818707458382155
1.9146479067079567 -0.0957326799878642
1.923779046668296 -0.09183960585302978
1.9329101866286353 -0.08664307010544149
1.9420413265889747 -0.08036796376853475
1.951172466549314 -0.07334315661656585
1.9694347464699928 -0.058758900251856365
1.9785658864303324 -0.05208199716331552
1.9876970263906717 -0.0462952896103413
1.996828166351011 -0.04163365866879371
2.0059593063113503 -0.038241426292793174
2.0150904462716897 -0.03619540296636146
2.024221586232029 -0.03552342085674722
2.0333527261923683 -0.0362118908119653
2.0424838661527076 -0.03820070146018313
2.051615006113047 -0.04136638318033069
2.0607461460733862 -0.045498580079407984
2.0698772860337256 -0.050282733535131185
2.079008425994065 -0.05530892081780374
2.088139565954404 -0.06011943180823553
2.0972707059147435 -0.06428046367169848
2.106401845875083 -0.0674414849824248
2.1155329858354226 -0.06935738362297579
2.1246641257957624 -0.06987815311530159
2.1337952657561017 -0.06892600531177598
2.142926405716441 -0.06647607413018719
2.1520575456767803 -0.06254824131901968
2.1611886856371196 -0.0572120591536032
2.170319825597459 -0.05060357467037526
2.1794509655577983 -0.04294820352692897
2.1885821055181376 -0.03457571697781765
2.197713245478477 -0.025907350921310465
2.2068443854388162 -0.017404751642038894
2.2159755253991555 -0.009498486522223841
2.225106665359495 -0.002532566614970807
2.234237805319834 0.0032533982192470747
2.2433689452801735 0.00771167496792135
2.252500085240513 0.010763391967587023
2.261631225200852 0.0123801105535092
2.2707623651611915 0.012576721936355477
2.2798935051215308 0.011417401921422444
2.28902464508187 0.009033411568769752
2.2981557850422094 0.005646824413598542
2.3072869250025487 0.0015858797988139595
2.316418064962888 -0.002728549800020328
2.3255492049232274 -0.006835639891395425
2.334680344883567 -0.010307676884256116
2.343811484843907 -0.012805974396865972
2.352942624804246 -0.01409809727810271
2.3620737647645855 -0.014044478355546782
2.371204904724925 -0.012574829867745156
2.380336044685264 -0.00966943053181656
2.3894671846456035 -0.005351822723066915
2.398598324605943 0.00030555558536052025
2.407729464566282 0.007164147242179599
2.417634536600322 0.01569509311889873
2.427539608634362 0.024941547950840963
2.437444680668402 0.03435545888647451
2.4473497527024417 0.043350999010636354
2.4572548247364816 0.05140899570763168
2.4671598967705215 0.05814358300647825
2.4770649688045614 0.0633090864683949
2.4869700408386013 0.06677133222458895
2.496875112872641 0.06847593876185736
2.506780184906681 0.06843189414699348
2.516685256940721 0.06671617849082073
2.526590328974761 0.06349816346227856
2.5364954010088008 0.05907369271520983
2.5464004730428407 0.05388358175364223
2.5563055450768806 0.04848244057160846
2.5662106171109205 0.043449259576828
2.5761156891449604 0.03928382458880565
2.5860207611790003 0.036347875753721566
2.59592583321304 0.03486540570808883
2.60583090524708 0.03495416302392944
2.61573597728112 0.036657311832022574
2.62564104931516 0.03995942324078663
2.6355461213491997 0.044782301726888886
2.6454511933832396 0.05096178453502632
2.6553562654172795 0.05821392857357313
2.6652613374513194 0.0661129606141489
2.6751664094853593 0.07411424691582294
2.6850714815193992 0.08163623838943358
2.694976553553439 0.08816456315937175
2.704881625587479 0.09331825239711491
2.714786697621519 0.09685635447546809
2.7246917696555584 0.09864922308886248
2.734596841689598 0.09864701509752856
2.7445019137236377 0.09686364744596594
2.7544069857576776 0.09338188569959185
2.7643120577917175 0.08837804921901371
2.7742171298257574 0.08215567019838386
2.7841222018597973 0.07516222070678852
2.794027273893837 0.06795530574115641
2.803932345927877 0.06111204071736258
2.813837417961917 0.055127289959991214
2.823742489995957 0.050358089058360526
2.833647562029997 0.04702602838464338
2.8435526340640367 0.04524903556046735
2.8534577060980766 0.045072324259495596
2.8633627781321165 0.04648342516548231
2.8732678501661564 0.049407038962938354
2.8831729222001963 0.053680846383156476
2.893077994234236 0.05902085528938003
2.902983066268276 0.06499928258604762
2.912888138302316 0.07106894098872771
2.922793210336356 0.07664755744209141
2.9326982823703958 0.0812232171567571
2.9426033544044357 0.08441989772835617
2.9525084264384756 0.08600246947487815
2.9624134984725154 0.08584689274569612
2.9723185705065553 0.083908447346787
2.9822236425405952 0.08020594659930563
2.992128714574635 0.07482730284810654
3.002033786608675 0.06795470607395271
3.011938858642715 0.059898437714259276
3.021843930676755 0.05111301244969271
3.0317490027107947 0.042162006894
3.0416540747448346 0.03362620993157613
3.050898129872983 0.026474409703888088
3.0601421850011317 0.020412298590805174
3.06938624012928 0.015629863241746454
3.0786302952574287 0.012235052512897077
3.0878743503855772 0.01027676944026003
3.0971184055137257 0.009757848826348812
3.1063624606418747 0.0106345170498449
3.1156065157700232 0.012802296317502283
3.1248505708981718 0.016072105718208062
3.1340946260263207 0.020147752515476108
3.1433386811544692 0.02462542487476788
3.1525827362826178 0.029033790674237073
3.1618267914107663 0.0329077535191097
3.171070846538915 0.03585895070573558
3.1803149016670633 0.03760919900727594
3.189558956795212 0.03798509357913637
3.1988030119233604 0.03689423659852737
3.208047067051509 0.034302695880821736
3.2172911221796574 0.03022359253608211
3.226535177307806 0.024719751251941573
3.2357792324359544 0.017919675709004816
3.245023287564103 0.010041618319513099
3.254267342692252 0.0014121991245497707
3.2635113978204005 -0.00754178289988208
3.272755452948549 -0.016342430137011938
3.281999508076698 -0.02453584606781309
3.2912435632048465 -0.03175453097160468
3.300487618332995 -0.037740456086366066
3.3097316734611435 -0.042333974830454035
3.318975728589292 -0.04544979735920788
3.3282197837174405 -0.04705709342514892
3.337463838845589 -0.047171552452317855
3.3467078939737376 -0.045861441205313644
3.355951949101886 -0.04326627602421901
3.3651960042300346 -0.039621413809977656
3.374440059358183 -0.03527282548329973
3.3836841144863317 -0.03066019276181951
3.39292816961448 -0.02625901175949942
3.402172224742629 -0.022504025561268962
3.4114162798707777 -0.019733887780043622
3.420660334998926 -0.01817711775564503
3.429904390127075 -0.017968400326889095
3.4391484452552237 -0.019173487863038546
3.448392500383372 -0.02180774272186515
3.4576365555115207 -0.02584224567529355
3.4668806106396692 -0.031196282742083182
3.4761246657678178 -0.0377180321576688
3.4853687208959663 -0.0451605263388125
3.494612776024115 -0.05316880131748529
3.5038568311522633 -0.06129915355667648
3.513100886280412 -0.06907775100318736
3.5223449414085604 -0.07607510649648602
3.531588996536709 -0.08195802648146931
3.5408330516648574 -0.0865014302841895
3.550077106793006 -0.0895718394352639
3.5593211619211544 -0.09110368353297768
3.568565217049303 -0.0910826968919756
3.5778092721774515 -0.08954219856347623
3.5870533273056 -0.0865732033071903
3.5962973824337485 -0.08234559053913591
3.605541437561897 -0.07713098504571783
3.6147854926900456 -0.07130881483058504
3.6240295478181945 -0.0653356797428562
3.633273602946343 -0.059678409299115255
3.643291590148192 -0.054371583397169125
3.653309577350041 -0.05028741568427105
3.66332756455189 -0.04766135722548329
3.673345551753739 -0.04661844308358765
3.683363538955588 -0.04720632130874061
3.693381526157437 -0.04941199943793734
3.7033995133592863 -0.053157313662115686
3.7134175005611354 -0.058274244013859854
3.7234354877629845 -0.06446915670715891
3.7334534749648336 -0.0713002501219799
3.7434714621666827 -0.07820378766744755
3.753489449368532 -0.08458241243634955
3.763507436570381 -0.08991389430356796
3.77352542377223 -0.09381700427397233
3.783543410974079 -0.09605487506148724
3.793561398175928 -0.0965036900727998
3.8035793853777773 -0.09512059851592265
3.8135973725796264 -0.09192889113561795
3.8236153597814755 -0.0870256049724486
3.8336333469833246 -0.08060916699127584
3.8436513341851737 -0.07301415283884215
3.853669321387023 -0.0647236501599812
3.863687308588872 -0.05632472161959715
3.873705295790721 -0.0484075874669412
3.88372328299257 -0.04146321354621808
3.893741270194419 -0.035835684485132406
3.9037592573962683 -0.03173268134868807
3.9137772445981174 -0.029260495900940035
3.9237952317999665 -0.028453657852895293
3.9338132190018156 -0.029285704879770443
3.9438312062036647 -0.03165791672733497
3.9538491934055138 -0.03536891213674441
3.963867180607363 -0.04007856096558246
3.973885167809212 -0.04529675742596831
3.983903155011061 -0.05043175336553288
3.99392114221291 -0.05489486538520654
4.003939129414759 -0.05820343551866178
4.013957116616608 -0.06002586251440764
4.023975103818458 -0.060168397650767355
4.033993091020307 -0.058539309634026246
4.044011078222155 -0.05512041640873278
4.054029065424005 -0.04995891575586613
4.064047052625854 -0.04318187427136669
4.074065039827703 -0.03502844717194179
4.084083027029552 -0.02588226318637378
4.094101014231401 -0.01627006016581912
4.104119001433251 -0.00679730118199274
4.114136988635099 0.0019613963254842626
4.124154975836948 0.009553172854433325
4.1341729630387976 0.015675235950018185
4.144190950240647 0.020152930704359365
4.154208937442496 0.022904032888851695
4.164226924644344 0.023914664599266465
4.174244911846194 0.023236502649401282
4.1842628990480435 0.021006247986504623
4.194280886249892 0.017480756778027975
4.204298873451741 0.013066901844537607
4.21431686065359 0.008309783276884983
4.22433484785544 0.0038152647663197868
4.2343528350572885 0.00013664601858937402
4.244370822259137 -0.0023072064095185267
4.254388809460986 -0.00324817140061473
4.2644067966628345 -0.0025408041412252162
4.274424783864684 -0.0001265521437763328
4.284260070487173 0.003897732371876742
4.294095357109661 0.009492734036467323
4.30393064373215 0.016509994027696307
4.313765930354638 0.024688753059705807
4.323601216977126 0.03363120580922364
4.333436503599614 0.04281630309928412
4.3432717902221025 0.05167087975537652
4.353107076844591 0.05967077430171785
4.362942363467079 0.0664141188516824
4.372777650089567 0.07163731473191323
4.382612936712055 0.07519120395805937
4.3924482233345445 0.07700934350229664
4.402283509957034 0.0770885902048602
4.412118796579522 0.07548923578917394
4.42195408320201 0.07235470448651384
4.431789369824498 0.06794352804389896
4.441624656446987 0.06265321986014412
4.451459943069475 0.057003904827446605
4.461295229691963 0.0515642800262152
4.471130516314452 0.04684995614971135
4.480965802936941 0.04325239039793972
4.4908010895594295 0.04102554107438827
4.500636376181918 0.040311150085590004
4.510471662804406 0.04117120941954014
4.520306949426894 0.04360849086172169
4.530142236049382 0.047568543052347936
4.539977522671871 0.05292274981503804
4.549812809294359 0.05943759831713674
4.559648095916847 0.06674632612804307
4.569483382539335 0.07435267526074232
4.5793186691618235 0.08169083053125473
4.589153955784313 0.08822445025150444
4.598989242406802 0.09352901333785675
4.60882452902929 0.09731886676391613
4.618659815651778 0.09942880050465773
4.628495102274266 0.09978198277180192
4.638330388896755 0.09836743347499652
4.648165675519243 0.0952363412535111
4.658000962141731 0.09051835863284051
4.667836248764219 0.08445220421114365
4.6776715353867075 0.07741283542687583
4.687506822009196 0.06990412459097649
4.697342108631684 0.06249437818246328
4.707177395254173 0.055715883988398635
4.717012681876662 0.049985694167371114
4.7268479684991505 0.04558292022997955
4.736683255121639 0.04266962644718547
4.746518541744127 0.041323624527719045
